일련번호,시간,하중,변위,테이블,강도,변형율
,[sec],[kN],[mm],[mm],[kN/mm²],[%]
1,0.000,0.0000,0.00000,0.00620,0.0000,0.00000
2,0.013,0.0000,0.00750,0.00750,0.0000,0.01500
3,0.029,0.0000,0.00880,0.00880,0.0000,0.01760
4,0.045,0.0000,0.01020,0.01020,0.0000,0.02040
5,0.061,0.0000,0.01150,0.01150,0.0000,0.02300
6,0.077,0.0000,0.01280,0.01280,0.0000,0.02560
7,0.092,0.0000,0.01420,0.01420,0.0000,0.02840
8,0.109,0.0000,0.01550,0.01550,0.0000,0.03100
9,0.125,0.0104,0.01680,0.01680,0.0002,0.03360
10,0.141,0.0122,0.01820,0.01820,0.0003,0.03640
11,0.157,0.0134,0.01950,0.01950,0.0003,0.03900
12,0.173,0.0147,0.02080,0.02080,0.0003,0.04160
13,0.189,0.0159,0.02210,0.02210,0.0004,0.04420
14,0.205,0.0159,0.02350,0.02350,0.0004,0.04700
15,0.221,0.0171,0.02480,0.02480,0.0004,0.04960
16,0.237,0.0195,0.02610,0.02610,0.0004,0.05220
17,0.254,0.0214,0.02740,0.02740,0.0005,0.05480
18,0.270,0.0232,0.02880,0.02880,0.0005,0.05760
19,0.286,0.0250,0.03010,0.03010,0.0006,0.06020
20,0.301,0.0269,0.03150,0.03150,0.0006,0.06300
21,0.317,0.0281,0.03280,0.03280,0.0006,0.06560
22,0.333,0.0299,0.03410,0.03410,0.0007,0.06820
23,0.350,0.0312,0.03540,0.03540,0.0007,0.07080
24,0.367,0.0330,0.03680,0.03680,0.0007,0.07360
25,0.381,0.0330,0.03810,0.03810,0.0007,0.07620
26,0.397,0.0330,0.03950,0.03950,0.0007,0.07900
27,0.413,0.0354,0.04080,0.04080,0.0008,0.08160
28,0.429,0.0379,0.04210,0.04210,0.0008,0.08420
29,0.446,0.0397,0.04350,0.04350,0.0009,0.08700
30,0.461,0.0409,0.04480,0.04480,0.0009,0.08960
31,0.478,0.0428,0.04620,0.04620,0.0010,0.09240
32,0.494,0.0440,0.04750,0.04750,0.0010,0.09500
33,0.509,0.0458,0.04880,0.04880,0.0010,0.09760
34,0.526,0.0477,0.05010,0.05010,0.0011,0.10020
35,0.541,0.0489,0.05150,0.05150,0.0011,0.10300
36,0.558,0.0501,0.05290,0.05290,0.0011,0.10580
37,0.573,0.0489,0.05420,0.05420,0.0011,0.10840
38,0.591,0.0507,0.05550,0.05550,0.0011,0.11100
39,0.605,0.0532,0.05680,0.05680,0.0012,0.11360
40,0.621,0.0556,0.05820,0.05820,0.0012,0.11640
41,0.638,0.0574,0.05950,0.05950,0.0013,0.11900
42,0.653,0.0593,0.06080,0.06080,0.0013,0.12160
43,0.669,0.0611,0.06210,0.06210,0.0014,0.12420
44,0.686,0.0629,0.06350,0.06350,0.0014,0.12700
45,0.702,0.0648,0.06480,0.06480,0.0015,0.12960
46,0.718,0.0660,0.06620,0.06620,0.0015,0.13240
47,0.733,0.0678,0.06750,0.06750,0.0015,0.13500
48,0.749,0.0691,0.06880,0.06880,0.0015,0.13760
49,0.765,0.0697,0.07010,0.07010,0.0016,0.14020
50,0.781,0.0715,0.07140,0.07140,0.0016,0.14280
51,0.797,0.0727,0.07280,0.07280,0.0016,0.14560
52,0.814,0.0746,0.07410,0.07410,0.0017,0.14820
53,0.829,0.0764,0.07540,0.07540,0.0017,0.15080
54,0.845,0.0776,0.07680,0.07680,0.0017,0.15360
55,0.861,0.0788,0.07810,0.07810,0.0018,0.15620
56,0.878,0.0801,0.07950,0.07950,0.0018,0.15900
57,0.893,0.0813,0.08080,0.08080,0.0018,0.16160
58,0.909,0.0831,0.08210,0.08210,0.0019,0.16420
59,0.926,0.0837,0.08340,0.08340,0.0019,0.16680
60,0.941,0.0843,0.08480,0.08480,0.0019,0.16960
61,0.957,0.0868,0.08610,0.08610,0.0019,0.17220
62,0.974,0.0880,0.08750,0.08750,0.0020,0.17500
63,0.990,0.0898,0.08880,0.08880,0.0020,0.17760
64,1.006,0.0904,0.09010,0.09010,0.0020,0.18020
65,1.022,0.0923,0.09150,0.09150,0.0021,0.18300
66,1.039,0.0941,0.09280,0.09280,0.0021,0.18560
67,1.054,0.0959,0.09420,0.09420,0.0021,0.18840
68,1.070,0.0978,0.09550,0.09550,0.0022,0.19100
69,1.086,0.0990,0.09680,0.09680,0.0022,0.19360
70,1.102,0.1008,0.09810,0.09810,0.0023,0.19620
71,1.119,0.1033,0.09950,0.09950,0.0023,0.19900
72,1.133,0.1045,0.10080,0.10080,0.0023,0.20160
73,1.150,0.1063,0.10220,0.10220,0.0024,0.20440
74,1.166,0.1076,0.10350,0.10350,0.0024,0.20700
75,1.182,0.1088,0.10480,0.10480,0.0024,0.20960
76,1.198,0.1100,0.10610,0.10610,0.0025,0.21220
77,1.214,0.1118,0.10750,0.10750,0.0025,0.21500
78,1.231,0.1137,0.10880,0.10880,0.0025,0.21760
79,1.247,0.1149,0.11010,0.11010,0.0026,0.22020
80,1.262,0.1155,0.11140,0.11140,0.0026,0.22280
81,1.278,0.1173,0.11280,0.11280,0.0026,0.22560
82,1.294,0.1192,0.11410,0.11410,0.0027,0.22820
83,1.310,0.1216,0.11540,0.11540,0.0027,0.23080
84,1.326,0.1222,0.11670,0.11670,0.0027,0.23340
85,1.342,0.1235,0.11810,0.11810,0.0028,0.23620
86,1.359,0.1241,0.11940,0.11940,0.0028,0.23880
87,1.375,0.1253,0.12080,0.12080,0.0028,0.24160
88,1.390,0.1271,0.12210,0.12210,0.0028,0.24420
89,1.407,0.1283,0.12340,0.12340,0.0029,0.24680
90,1.422,0.1296,0.12470,0.12470,0.0029,0.24940
91,1.438,0.1308,0.12610,0.12610,0.0029,0.25220
92,1.454,0.1326,0.12750,0.12750,0.0030,0.25500
93,1.470,0.1338,0.12880,0.12880,0.0030,0.25760
94,1.486,0.1369,0.13010,0.13010,0.0031,0.26020
95,1.502,0.1381,0.13150,0.13150,0.0031,0.26300
96,1.519,0.1393,0.13280,0.13280,0.0031,0.26560
97,1.535,0.1406,0.13410,0.13410,0.0032,0.26820
98,1.551,0.1418,0.13550,0.13550,0.0032,0.27100
99,1.566,0.1430,0.13680,0.13680,0.0032,0.27360
100,1.583,0.1448,0.13810,0.13810,0.0032,0.27620
101,1.599,0.1467,0.13950,0.13950,0.0033,0.27900
102,1.615,0.1485,0.14080,0.14080,0.0033,0.28160
103,1.630,0.1491,0.14220,0.14220,0.0033,0.28440
104,1.647,0.1510,0.14350,0.14350,0.0034,0.28700
105,1.663,0.1534,0.14480,0.14480,0.0034,0.28960
106,1.679,0.1558,0.14610,0.14610,0.0035,0.29220
107,1.695,0.1565,0.14750,0.14750,0.0035,0.29500
108,1.712,0.1577,0.14880,0.14880,0.0035,0.29760
109,1.726,0.1589,0.15010,0.15010,0.0036,0.30020
110,1.743,0.1601,0.15140,0.15140,0.0036,0.30280
111,1.758,0.1613,0.15270,0.15270,0.0036,0.30540
112,1.775,0.1620,0.15410,0.15410,0.0036,0.30820
113,1.791,0.1638,0.15540,0.15540,0.0037,0.31080
114,1.806,0.1650,0.15680,0.15680,0.0037,0.31360
115,1.823,0.1669,0.15810,0.15810,0.0037,0.31620
116,1.839,0.1675,0.15940,0.15940,0.0038,0.31880
117,1.855,0.1711,0.16070,0.16070,0.0038,0.32140
118,1.871,0.1724,0.16210,0.16210,0.0039,0.32420
119,1.887,0.1730,0.16340,0.16340,0.0039,0.32680
120,1.903,0.1742,0.16480,0.16480,0.0039,0.32960
121,1.919,0.1760,0.16610,0.16610,0.0039,0.33220
122,1.936,0.1779,0.16740,0.16740,0.0040,0.33480
123,1.951,0.1791,0.16880,0.16880,0.0040,0.33760
124,1.967,0.1797,0.17010,0.17010,0.0040,0.34020
125,1.982,0.1815,0.17150,0.17150,0.0041,0.34300
126,1.999,0.1827,0.17280,0.17280,0.0041,0.34560
127,2.015,0.1834,0.17410,0.17410,0.0041,0.34820
128,2.031,0.1852,0.17550,0.17550,0.0042,0.35100
129,2.048,0.1870,0.17680,0.17680,0.0042,0.35360
130,2.063,0.1882,0.17820,0.17820,0.0042,0.35640
131,2.079,0.1895,0.17950,0.17950,0.0042,0.35900
132,2.095,0.1913,0.18080,0.18080,0.0043,0.36160
133,2.111,0.1925,0.18210,0.18210,0.0043,0.36420
134,2.128,0.1931,0.18350,0.18350,0.0043,0.36700
135,2.143,0.1950,0.18480,0.18480,0.0044,0.36960
136,2.159,0.1956,0.18610,0.18610,0.0044,0.37220
137,2.176,0.1968,0.18740,0.18740,0.0044,0.37480
138,2.191,0.1986,0.18880,0.18880,0.0045,0.37760
139,2.207,0.1992,0.19010,0.19010,0.0045,0.38020
140,2.224,0.2005,0.19140,0.19140,0.0045,0.38280
141,2.240,0.2023,0.19280,0.19280,0.0045,0.38560
142,2.255,0.2035,0.19410,0.19410,0.0046,0.38820
143,2.271,0.2047,0.19540,0.19540,0.0046,0.39080
144,2.287,0.2060,0.19680,0.19680,0.0046,0.39360
145,2.303,0.2072,0.19810,0.19810,0.0046,0.39620
146,2.319,0.2090,0.19940,0.19940,0.0047,0.39880
147,2.335,0.2102,0.20070,0.20070,0.0047,0.40140
148,2.352,0.2109,0.20210,0.20210,0.0047,0.40420
149,2.367,0.2121,0.20340,0.20340,0.0048,0.40680
150,2.384,0.2127,0.20480,0.20480,0.0048,0.40960
151,2.399,0.2133,0.20610,0.20610,0.0048,0.41220
152,2.415,0.2151,0.20740,0.20740,0.0048,0.41480
153,2.431,0.2164,0.20870,0.20870,0.0048,0.41740
154,2.448,0.2176,0.21010,0.21010,0.0049,0.42020
155,2.463,0.2188,0.21150,0.21150,0.0049,0.42300
156,2.479,0.2206,0.21280,0.21280,0.0049,0.42560
157,2.496,0.2219,0.21410,0.21410,0.0050,0.42820
158,2.511,0.2231,0.21540,0.21540,0.0050,0.43080
159,2.528,0.2243,0.21680,0.21680,0.0050,0.43360
160,2.544,0.2255,0.21810,0.21810,0.0051,0.43620
161,2.560,0.2268,0.21950,0.21950,0.0051,0.43900
162,2.575,0.2268,0.22080,0.22080,0.0051,0.44160
163,2.591,0.2280,0.22210,0.22210,0.0051,0.44420
164,2.608,0.2298,0.22350,0.22350,0.0051,0.44700
165,2.623,0.2323,0.22480,0.22480,0.0052,0.44960
166,2.639,0.2341,0.22610,0.22610,0.0052,0.45220
167,2.655,0.2353,0.22750,0.22750,0.0053,0.45500
168,2.672,0.2371,0.22880,0.22880,0.0053,0.45760
169,2.688,0.2384,0.23010,0.23010,0.0053,0.46020
170,2.703,0.2396,0.23140,0.23140,0.0054,0.46280
171,2.721,0.2414,0.23280,0.23280,0.0054,0.46560
172,2.736,0.2433,0.23410,0.23410,0.0055,0.46820
173,2.752,0.2433,0.23540,0.23540,0.0055,0.47080
174,2.769,0.2426,0.23670,0.23670,0.0054,0.47340
175,2.784,0.2451,0.23810,0.23810,0.0055,0.47620
176,2.799,0.2469,0.23940,0.23940,0.0055,0.47880
177,2.815,0.2488,0.24080,0.24080,0.0056,0.48160
178,2.832,0.2506,0.24210,0.24210,0.0056,0.48420
179,2.848,0.2518,0.24340,0.24340,0.0056,0.48680
180,2.864,0.2536,0.24470,0.24470,0.0057,0.48940
181,2.880,0.2549,0.24610,0.24610,0.0057,0.49220
182,2.896,0.2561,0.24740,0.24740,0.0057,0.49480
183,2.912,0.2579,0.24870,0.24870,0.0058,0.49740
184,2.928,0.2585,0.25010,0.25010,0.0058,0.50020
185,2.944,0.2585,0.25140,0.25140,0.0058,0.50280
186,2.960,0.2598,0.25280,0.25280,0.0058,0.50560
187,2.976,0.2622,0.25410,0.25410,0.0059,0.50820
188,2.992,0.2640,0.25540,0.25540,0.0059,0.51080
189,3.007,0.2659,0.25680,0.25680,0.0060,0.51360
190,3.023,0.2671,0.25810,0.25810,0.0060,0.51620
191,3.040,0.2683,0.25950,0.25950,0.0060,0.51900
192,3.057,0.2695,0.26080,0.26080,0.0060,0.52160
193,3.072,0.2714,0.26210,0.26210,0.0061,0.52420
194,3.088,0.2726,0.26340,0.26340,0.0061,0.52680
195,3.104,0.2738,0.26480,0.26480,0.0061,0.52960
196,3.120,0.2750,0.26610,0.26610,0.0062,0.53220
197,3.136,0.2756,0.26750,0.26750,0.0062,0.53500
198,3.152,0.2775,0.26880,0.26880,0.0062,0.53760
199,3.170,0.2787,0.27010,0.27010,0.0062,0.54020
200,3.184,0.2799,0.27140,0.27140,0.0063,0.54280
201,3.200,0.2818,0.27280,0.27280,0.0063,0.54560
202,3.216,0.2830,0.27410,0.27410,0.0063,0.54820
203,3.233,0.2848,0.27540,0.27540,0.0064,0.55080
204,3.248,0.2867,0.27740,0.27740,0.0064,0.55480
205,3.265,0.2879,0.27810,0.27810,0.0065,0.55620
206,3.281,0.2891,0.28010,0.28010,0.0065,0.56020
207,3.296,0.2897,0.28140,0.28140,0.0065,0.56280
208,3.312,0.2897,0.28270,0.28270,0.0065,0.56540
209,3.328,0.2922,0.28400,0.28400,0.0065,0.56800
210,3.344,0.2940,0.28540,0.28540,0.0066,0.57080
211,3.360,0.2958,0.28670,0.28670,0.0066,0.57340
212,3.377,0.2970,0.28810,0.28810,0.0067,0.57620
213,3.393,0.2983,0.28940,0.28940,0.0067,0.57880
214,3.408,0.3001,0.29070,0.29070,0.0067,0.58140
215,3.424,0.3013,0.29210,0.29210,0.0068,0.58420
216,3.440,0.3032,0.29340,0.29340,0.0068,0.58680
217,3.457,0.3044,0.29480,0.29480,0.0068,0.58960
218,3.472,0.3056,0.29610,0.29610,0.0068,0.59220
219,3.489,0.3074,0.29740,0.29740,0.0069,0.59480
220,3.505,0.3087,0.29880,0.29880,0.0069,0.59760
221,3.521,0.3099,0.30010,0.30010,0.0069,0.60020
222,3.537,0.3111,0.30150,0.30150,0.0070,0.60300
223,3.553,0.3123,0.30280,0.30280,0.0070,0.60560
224,3.568,0.3142,0.30410,0.30410,0.0070,0.60820
225,3.585,0.3154,0.30540,0.30540,0.0071,0.61080
226,3.601,0.3166,0.30680,0.30680,0.0071,0.61360
227,3.617,0.3178,0.30810,0.30810,0.0071,0.61620
228,3.632,0.3197,0.30950,0.30950,0.0072,0.61900
229,3.649,0.3209,0.31080,0.31080,0.0072,0.62160
230,3.665,0.3227,0.31210,0.31210,0.0072,0.62420
231,3.681,0.3239,0.31340,0.31340,0.0073,0.62680
232,3.697,0.3245,0.31480,0.31480,0.0073,0.62960
233,3.713,0.3258,0.31610,0.31610,0.0073,0.63220
234,3.730,0.3270,0.31740,0.31740,0.0073,0.63480
235,3.744,0.3288,0.31870,0.31870,0.0074,0.63740
236,3.761,0.3300,0.32000,0.32000,0.0074,0.64000
237,3.776,0.3313,0.32140,0.32140,0.0074,0.64280
238,3.792,0.3331,0.32270,0.32270,0.0075,0.64540
239,3.809,0.3343,0.32410,0.32410,0.0075,0.64820
240,3.825,0.3349,0.32540,0.32540,0.0075,0.65080
241,3.842,0.3380,0.32670,0.32670,0.0076,0.65340
242,3.856,0.3398,0.32800,0.32800,0.0076,0.65600
243,3.873,0.3398,0.32940,0.32940,0.0076,0.65880
244,3.889,0.3404,0.33070,0.33070,0.0076,0.66140
245,3.905,0.3411,0.33210,0.33210,0.0076,0.66420
246,3.921,0.3423,0.33340,0.33340,0.0077,0.66680
247,3.937,0.3435,0.33470,0.33470,0.0077,0.66940
248,3.954,0.3447,0.33610,0.33610,0.0077,0.67220
249,3.970,0.3453,0.33740,0.33740,0.0077,0.67480
250,3.986,0.3466,0.33880,0.33880,0.0078,0.67760
251,4.001,0.3472,0.34010,0.34010,0.0078,0.68020
252,4.017,0.3484,0.34140,0.34140,0.0078,0.68280
253,4.033,0.3514,0.34280,0.34280,0.0079,0.68560
254,4.049,0.3521,0.34410,0.34410,0.0079,0.68820
255,4.066,0.3527,0.34540,0.34540,0.0079,0.69080
256,4.081,0.3533,0.34680,0.34680,0.0079,0.69360
257,4.097,0.3539,0.34810,0.34810,0.0079,0.69620
258,4.113,0.3545,0.34940,0.34940,0.0079,0.69880
259,4.129,0.3557,0.35080,0.35080,0.0080,0.70160
260,4.145,0.3569,0.35210,0.35210,0.0080,0.70420
261,4.161,0.3582,0.35340,0.35340,0.0080,0.70680
262,4.178,0.3594,0.35470,0.35470,0.0081,0.70940
263,4.193,0.3600,0.35610,0.35610,0.0081,0.71220
264,4.209,0.3618,0.35740,0.35740,0.0081,0.71480
265,4.225,0.3637,0.35880,0.35880,0.0082,0.71760
266,4.242,0.3643,0.36010,0.36010,0.0082,0.72020
267,4.258,0.3655,0.36140,0.36140,0.0082,0.72280
268,4.273,0.3661,0.36270,0.36270,0.0082,0.72540
269,4.290,0.3673,0.36410,0.36410,0.0082,0.72820
270,4.306,0.3679,0.36540,0.36540,0.0082,0.73080
271,4.321,0.3692,0.36670,0.36670,0.0083,0.73340
272,4.337,0.3704,0.36800,0.36800,0.0083,0.73600
273,4.354,0.3716,0.36940,0.36940,0.0083,0.73880
274,4.370,0.3728,0.37070,0.37070,0.0084,0.74140
275,4.385,0.3734,0.37210,0.37210,0.0084,0.74420
276,4.402,0.3753,0.37340,0.37340,0.0084,0.74680
277,4.417,0.3765,0.37470,0.37470,0.0084,0.74940
278,4.434,0.3777,0.37600,0.37600,0.0085,0.75200
279,4.450,0.3796,0.37740,0.37740,0.0085,0.75480
280,4.465,0.3808,0.37880,0.37880,0.0085,0.75760
281,4.481,0.3820,0.38010,0.38010,0.0086,0.76020
282,4.498,0.3832,0.38140,0.38140,0.0086,0.76280
283,4.514,0.3851,0.38270,0.38270,0.0086,0.76540
284,4.529,0.3863,0.38410,0.38410,0.0087,0.76820
285,4.545,0.3869,0.38540,0.38540,0.0087,0.77080
286,4.561,0.3881,0.38680,0.38680,0.0087,0.77360
287,4.578,0.3887,0.38810,0.38810,0.0087,0.77620
288,4.593,0.3906,0.38940,0.38940,0.0088,0.77880
289,4.610,0.3918,0.39080,0.39080,0.0088,0.78160
290,4.626,0.3936,0.39210,0.39210,0.0088,0.78420
291,4.641,0.3955,0.39340,0.39340,0.0089,0.78680
292,4.658,0.3967,0.39470,0.39470,0.0089,0.78940
293,4.673,0.3973,0.39610,0.39610,0.0089,0.79220
294,4.690,0.3979,0.39740,0.39740,0.0089,0.79480
295,4.706,0.3991,0.39870,0.39870,0.0089,0.79740
296,4.722,0.4010,0.40010,0.40010,0.0090,0.80020
297,4.738,0.4022,0.40140,0.40140,0.0090,0.80280
298,4.753,0.4028,0.40270,0.40270,0.0090,0.80540
299,4.770,0.4046,0.40400,0.40400,0.0091,0.80800
300,4.785,0.4058,0.40540,0.40540,0.0091,0.81080
301,4.802,0.4071,0.40670,0.40670,0.0091,0.81340
302,4.818,0.4089,0.40800,0.40800,0.0092,0.81600
303,4.834,0.4101,0.40930,0.40930,0.0092,0.81860
304,4.851,0.4113,0.41070,0.41070,0.0092,0.82140
305,4.865,0.4126,0.41200,0.41200,0.0092,0.82400
306,4.882,0.4144,0.41340,0.41340,0.0093,0.82680
307,4.898,0.4156,0.41470,0.41470,0.0093,0.82940
308,4.914,0.4168,0.41600,0.41600,0.0093,0.83200
309,4.930,0.4175,0.41740,0.41740,0.0094,0.83480
310,4.946,0.4168,0.41870,0.41870,0.0093,0.83740
311,4.963,0.4187,0.42010,0.42010,0.0094,0.84020
312,4.978,0.4205,0.42140,0.42140,0.0094,0.84280
313,4.994,0.4223,0.42270,0.42270,0.0095,0.84540
314,5.010,0.4242,0.42410,0.42410,0.0095,0.84820
315,5.026,0.4254,0.42540,0.42540,0.0095,0.85080
316,5.043,0.4266,0.42680,0.42680,0.0096,0.85360
317,5.058,0.4278,0.42810,0.42810,0.0096,0.85620
318,5.074,0.4291,0.42940,0.42940,0.0096,0.85880
319,5.090,0.4309,0.43070,0.43070,0.0097,0.86140
320,5.106,0.4321,0.43210,0.43210,0.0097,0.86420
321,5.123,0.4315,0.43340,0.43340,0.0097,0.86680
322,5.138,0.4333,0.43480,0.43480,0.0097,0.86960
323,5.154,0.4352,0.43610,0.43610,0.0098,0.87220
324,5.170,0.4370,0.43740,0.43740,0.0098,0.87480
325,5.187,0.4388,0.43870,0.43870,0.0098,0.87740
326,5.203,0.4407,0.44010,0.44010,0.0099,0.88020
327,5.219,0.4419,0.44140,0.44140,0.0099,0.88280
328,5.235,0.4431,0.44270,0.44270,0.0099,0.88540
329,5.251,0.4443,0.44400,0.44400,0.0100,0.88800
330,5.266,0.4456,0.44540,0.44540,0.0100,0.89080
331,5.282,0.4468,0.44670,0.44670,0.0100,0.89340
332,5.298,0.4480,0.44810,0.44810,0.0100,0.89620
333,5.314,0.4480,0.44940,0.44940,0.0100,0.89880
334,5.330,0.4498,0.45070,0.45070,0.0101,0.90140
335,5.347,0.4511,0.45200,0.45200,0.0101,0.90400
336,5.362,0.4529,0.45340,0.45340,0.0101,0.90680
337,5.378,0.4541,0.45470,0.45470,0.0102,0.90940
338,5.394,0.4554,0.45600,0.45600,0.0102,0.91200
339,5.411,0.4572,0.45740,0.45740,0.0102,0.91480
340,5.427,0.4584,0.45870,0.45870,0.0103,0.91740
341,5.442,0.4596,0.46010,0.46010,0.0103,0.92020
342,5.459,0.4609,0.46140,0.46140,0.0103,0.92280
343,5.475,0.4627,0.46270,0.46270,0.0104,0.92540
344,5.491,0.4651,0.46410,0.46410,0.0104,0.92820
345,5.507,0.4664,0.46540,0.46540,0.0105,0.93080
346,5.523,0.4676,0.46670,0.46670,0.0105,0.93340
347,5.539,0.4682,0.46810,0.46810,0.0105,0.93620
348,5.555,0.4694,0.46940,0.46940,0.0105,0.93880
349,5.571,0.4706,0.47070,0.47070,0.0105,0.94140
350,5.587,0.4719,0.47210,0.47210,0.0106,0.94420
351,5.603,0.4731,0.47340,0.47340,0.0106,0.94680
352,5.619,0.4743,0.47480,0.47480,0.0106,0.94960
353,5.636,0.4761,0.47610,0.47610,0.0107,0.95220
354,5.651,0.4774,0.47740,0.47740,0.0107,0.95480
355,5.666,0.4792,0.47870,0.47870,0.0107,0.95740
356,5.682,0.4798,0.48000,0.48000,0.0108,0.96000
357,5.699,0.4816,0.48140,0.48140,0.0108,0.96280
358,5.715,0.4829,0.48270,0.48270,0.0108,0.96540
359,5.731,0.4835,0.48400,0.48400,0.0108,0.96800
360,5.747,0.4847,0.48540,0.48540,0.0109,0.97080
361,5.763,0.4859,0.48670,0.48670,0.0109,0.97340
362,5.779,0.4871,0.48800,0.48800,0.0109,0.97600
363,5.795,0.4890,0.48940,0.48940,0.0110,0.97880
364,5.811,0.4902,0.49070,0.49070,0.0110,0.98140
365,5.827,0.4908,0.49200,0.49200,0.0110,0.98400
366,5.842,0.4920,0.49330,0.49330,0.0110,0.98660
367,5.859,0.4951,0.49470,0.49470,0.0111,0.98940
368,5.875,0.4963,0.49600,0.49600,0.0111,0.99200
369,5.891,0.4969,0.49740,0.49740,0.0111,0.99480
370,5.907,0.4981,0.49870,0.49870,0.0112,0.99740
371,5.923,0.4994,0.50000,0.50000,0.0112,1.00000
372,5.939,0.5006,0.50140,0.50140,0.0112,1.00280
373,5.955,0.5018,0.50270,0.50270,0.0112,1.00540
374,5.972,0.5030,0.50410,0.50410,0.0113,1.00820
375,5.987,0.5049,0.50540,0.50540,0.0113,1.01080
376,6.003,0.5061,0.50670,0.50670,0.0113,1.01340
377,6.019,0.5073,0.50800,0.50800,0.0114,1.01600
378,6.036,0.5110,0.50940,0.50940,0.0115,1.01880
379,6.051,0.5116,0.51080,0.51080,0.0115,1.02160
380,6.068,0.5128,0.51210,0.51210,0.0115,1.02420
381,6.084,0.5140,0.51340,0.51340,0.0115,1.02680
382,6.100,0.5153,0.51470,0.51470,0.0115,1.02940
383,6.115,0.5165,0.51610,0.51610,0.0116,1.03220
384,6.131,0.5177,0.51740,0.51740,0.0116,1.03480
385,6.147,0.5183,0.51870,0.51870,0.0116,1.03740
386,6.163,0.5201,0.52000,0.52000,0.0117,1.04000
387,6.180,0.5214,0.52140,0.52140,0.0117,1.04280
388,6.196,0.5226,0.52270,0.52270,0.0117,1.04540
389,6.212,0.5244,0.52410,0.52410,0.0118,1.04820
390,6.228,0.5275,0.52540,0.52540,0.0118,1.05080
391,6.243,0.5281,0.52670,0.52670,0.0118,1.05340
392,6.260,0.5287,0.52800,0.52800,0.0118,1.05600
393,6.275,0.5299,0.52930,0.52930,0.0119,1.05860
394,6.291,0.5311,0.53070,0.53070,0.0119,1.06140
395,6.308,0.5324,0.53200,0.53200,0.0119,1.06400
396,6.323,0.5336,0.53330,0.53330,0.0120,1.06660
397,6.340,0.5348,0.53470,0.53470,0.0120,1.06940
398,6.355,0.5354,0.53600,0.53600,0.0120,1.07200
399,6.371,0.5373,0.53730,0.53730,0.0120,1.07460
400,6.388,0.5385,0.53870,0.53870,0.0121,1.07740
401,6.403,0.5415,0.54000,0.54000,0.0121,1.08000
402,6.420,0.5415,0.54130,0.54130,0.0121,1.08260
403,6.437,0.5428,0.54270,0.54270,0.0122,1.08540
404,6.452,0.5440,0.54400,0.54400,0.0122,1.08800
405,6.467,0.5452,0.54540,0.54540,0.0122,1.09080
406,6.484,0.5464,0.54670,0.54670,0.0122,1.09340
407,6.500,0.5483,0.54800,0.54800,0.0123,1.09600
408,6.515,0.5495,0.54940,0.54940,0.0123,1.09880
409,6.532,0.5507,0.55070,0.55070,0.0123,1.10140
